time_ns,x,y,theta,omega,lateral_error
100,0.0,0.0,0.0,0.0,0.0
1000100,0.0,0.17307707923962468,-0.09413168472085989,0.0,0.17307707923962468
2000100,0.000995572883387937,0.17298308650659372,-0.09413168472085988,-3.0,0.17298308650659372
3000100,0.001991145766775874,0.17288909377356276,-0.09713168472085988,-0.29900441251428383,0.17288909377356276
4000100,0.00298643219231307,0.1727921147493287,-0.09743068913337417,-0.2988337159575993,0.1727921147493287
5000100,0.003981689576203417,0.17269483813440126,-0.09772952284933178,-0.2971638915190562,0.17269483813440126
6000100,0.004976917846122849,0.17259726410735934,-0.09802668674085084,-0.29683781242631807,0.17259726410735934
7000100,0.005972117076622619,0.17249939433872435,-0.09832352455327716,-0.29651121804141306,0.17249939433872435
8000100,0.006967287211829952,0.172401229161643,-0.09862003577131857,-0.29618485764703895,0.172401229161643
9000100,0.007962428196214354,0.17230276890977228,-0.0989162206289656,-0.2958580631926067,0.17230276890977228
10000100,0.008957539974513894,0.1722040139165338,-0.0992120786921582,-0.29553083557107995,0.1722040139165338
11000100,0.00995262249180077,0.17210496451577836,-0.09950760952772929,-0.2952031753021163,0.17210496451577836
12000100,0.01094767569348141,0.17200562104178482,-0.0998028127030314,-0.29487508323856876,0.17200562104178482
13000100,0.011942699525296595,0.17190598382925945,-0.10009768778626997,-0.29454656023363884,0.17190598382925945
14000100,0.012937693933321554,0.1718060532133349,-0.10039223434650361,-0.2942176071410554,0.1718060532133349
15000100,0.013932658863966055,0.17170582952956912,-0.10068645195364467,-0.2938882248149338,0.17170582952956912
16000100,0.014927594263974494,0.17160531311394436,-0.10098034017845961,-0.29355841410974665,0.17160531311394436
17000100,0.015922500080425978,0.17150450430286612,-0.10127389859256936,-0.29322817588032096,0.17150450430286612
18000100,0.016917376260734404,0.17140340343316207,-0.10156712676844967,-0.2928975109818506,0.17140340343316207
19000100,0.017912222752648553,0.1713020108420811,-0.10186002427943154,-0.29256642026988006,0.1713020108420811
20000100,0.018907039504252147,0.1712003268672922,-0.10215259069970142,-0.2922349046003443,0.1712003268672922
21000100,0.019901826463963938,0.1710983518468834,-0.10244482560430176,-0.29190296482948325,0.1710983518468834
22000100,0.020896583580537774,0.1709960861193609,-0.10273672856913123,-0.2915706018139092,0.1709960861193609
23000100,0.021891310803062666,0.1708935300236478,-0.10302829917094514,-0.29123781641061874,0.1708935300236478
24000100,0.022886008080962854,0.1707906838990832,-0.10331953698735576,-0.29090460947689334,0.1707906838990832
25000100,0.023880675363997874,0.17068754808542116,-0.10361044159683265,-0.29057098187040875,0.17068754808542116
26000100,0.02487531260226262,0.17058412292282965,-0.10390101257870306,-0.29023693444917703,0.17058412292282965
27000100,0.025869919746187388,0.17048040875188944,-0.10419124951315223,-0.28990246807154474,0.17048040875188944
28000100,0.026864496746537948,0.17037640591359315,-0.10448115198122376,-0.28956758359619084,0.17037640591359315
29000100,0.027859043554415586,0.1702721147493442,-0.10477071956481995,-0.28923228188215255,0.1702721147493442
30000100,0.028853560121257154,0.1701675356009557,-0.10505995184670211,-0.2888965637887952,0.1701675356009557
31000100,0.02984804639883512,0.17006266881064955,-0.1053488484104909,-0.2885604301758106,0.17006266881064955
32000100,0.030842502339257612,0.16995751472105522,-0.1056374088406667,-0.2882238819032427,0.16995751472105522
33000100,0.031836927894968454,0.16985207367520885,-0.10592563272256995,-0.2878869198314435,0.16985207367520885
34000100,0.032831323018747215,0.16974634601655217,-0.1062135196424014,-0.2875495448210993,0.16974634601655217
35000100,0.03382568766370923,0.16964033208893145,-0.1065010691872225,-0.2872117577332283,0.16964033208893145
36000100,0.034820021783305635,0.1695340322365965,-0.10678828094495574,-0.2868735594291789,0.1695340322365965
37000100,0.03581432533132342,0.16942744680419958,-0.10707515450438493,-0.2865349507706135,0.16942744680419958
38000100,0.036808598261885435,0.16932057613679438,-0.10736168945515555,-0.2861959326195203,0.16932057613679438
39000100,0.037802840529450404,0.16921342057983504,-0.10764788538777507,-0.28585650583818395,0.16921342057983504
40000100,0.03879705208881298,0.16910598047917502,-0.10793374189361325,-0.28551667128925234,0.16910598047917502
41000100,0.039791232895103744,0.16899825618106615,-0.1082192585649025,-0.28517642983563773,0.16899825618106615
42000100,0.04078538290378921,0.16889024803215746,-0.10850443499473814,-0.2848357823406121,0.16889024803215746
43000100,0.04177950207067188,0.16878195637949436,-0.10878927077707874,-0.28449472966769324,0.16878195637949436
44000100,0.04277359035189021,0.16867338157051737,-0.10907376550674644,-0.28415327268079654,0.16867338157051737
45000100,0.04376764770391864,0.16856452395306123,-0.10935791877942723,-0.2838114122440516,0.16856452395306123
46000100,0.0447616740835676,0.16845538387535383,-0.10964173019167128,-0.2834691492219671,0.16845538387535383
47000100,0.04575566944798352,0.16834596168601515,-0.10992519934089325,-0.2831264844793039,0.16834596168601515
48000100,0.0467496337546488,0.16823625773405626,-0.11020832582537254,-0.28278341888115616,0.16823625773405626
49000100,0.04774356696138186,0.16812627236887825,-0.11049110924425372,-0.2824399532929079,0.16812627236887825
50000100,0.04873746902633708,0.16801600594027125,-0.11077354919754662,-0.2820960885802305,0.16801600594027125
51000100,0.049731339908004824,0.16790545879841326,-0.11105564528612685,-0.28175182560910905,0.16790545879841326
52000100,0.050725179565211435,0.1677946312938693,-0.11133739711173597,-0.2814071652457842,0.1677946312938693
53000100,0.0517189879571192,0.16768352377759022,-0.11161880427698176,-0.28106210835683376,0.16768352377759022
54000100,0.05271276504322634,0.16757213660091178,-0.1118998663853386,-0.28071665580910127,0.16757213660091178
55000100,0.053706510783367016,0.1674604701155535,-0.11218058304114768,-0.28037080846972146,0.1674604701155535
56000100,0.05470022513771127,0.16734852467361777,-0.1124609538496174,-0.2800245672061047,0.16734852467361777
57000100,0.05569390806676503,0.16723630062758865,-0.11274097841682351,-0.2796779328859624,0.16723630062758865
58000100,0.05668755953137007,0.16712379833033097,-0.11302065634970947,-0.2793309063772775,0.16712379833033097
59000100,0.057681179492704,0.16701101813508926,-0.11329998725608674,-0.27898348854831606,0.16701101813508926
60000100,0.05867476791228021,0.16689796039548663,-0.11357897074463505,-0.27863568026762553,0.16689796039548663
61000100,0.059668324751947846,0.16678462546552386,-0.11385760642490267,-0.2782874824040046,0.16678462546552386
62000100,0.06066184997389178,0.16667101369957832,-0.11413589390730669,-0.277938895826557,0.16667101369957832
63000100,0.061655343540632554,0.1665571254524029,-0.11441383280313325,-0.2775899214046476,0.1665571254524029
64000100,0.06264880541502636,0.166442961079125,-0.11469142272453789,-0.2772405600079006,0.166442961079125
65000100,0.06364223556026499,0.16632852093524558,-0.11496866328454579,-0.2768908125062251,0.16632852093524558
66000100,0.06463563393987579,0.16621380537663794,-0.11524555409705202,-0.27654067976978536,0.16621380537663794
67000100,0.06562900051772155,0.16609881475954688,-0.11552209477682181,-0.2761901626689987,0.16609881475954688
68000100,0.06662233525800058,0.16598354944058757,-0.1157982849394908,-0.27583926207458925,0.16598354944058757
69000100,0.06761563812524654,0.1658680097767445,-0.11607412420156539,-0.27548797885748844,0.1658680097767445
70000100,0.06860890908432841,0.16575219612537057,-0.11634961218042286,-0.27513631388890253,0.16575219612537057
71000100,0.06960214810045048,0.16563610884418586,-0.11662474849431177,-0.2747842680403244,0.16563610884418586
72000100,0.07059535513915223,0.1655197482912768,-0.1168995327623521,-0.27443184218346234,0.1655197482912768
73000100,0.07158853016630828,0.165403114825095,-0.11717396460453555,-0.2740790371902932,0.165403114825095
74000100,0.07258167314812834,0.16528620880445632,-0.11744804364172584,-0.2737258539330467,0.16528620880445632
75000100,0.07357478405115711,0.16516903058853977,-0.11772176949565889,-0.2733722932842034,0.16516903058853977
76000100,0.07456786284227422,0.16505158053688646,-0.1179951417889431,-0.2730183561164928,0.16505158053688646
77000100,0.07556090948869418,0.16493385900939864,-0.1182681601450596,-0.272664043302863,0.16493385900939864
78000100,0.07655392395796626,0.16481586636633866,-0.11854082418836247,-0.27230935571653486,0.16481586636633866
79000100,0.07754690621797444,0.16469760296832792,-0.118813133544079,-0.271954294230972,0.16469760296832792
80000100,0.07853985623693731,0.1645790691763458,-0.11908508783831,-0.27159885971986475,0.1645790691763458
81000100,0.07953277398340795,0.16446026535172872,-0.11935668669802986,-0.27124305305712815,0.16446026535172872
82000100,0.08052565942627395,0.16434119185616908,-0.11962792975108699,-0.2708868751169557,0.16434119185616908
83000100,0.08151851253475718,0.16422184905171416,-0.11989881662620394,-0.2705303267737338,0.16422184905171416
84000100,0.08251133327841383,0.1641022373007652,-0.12016934695297768,-0.2701734089020953,0.1641022373007652
85000100,0.08350412162713418,0.1639823569660763,-0.12043952036187977,-0.2698161223769037,0.1639823569660763
86000100,0.0844968775511426,0.1638622084107534,-0.12070933648425669,-0.269458468073251,0.1638622084107534
87000100,0.08548960102099744,0.16374179199825334,-0.12097879495232994,-0.2691004468664558,0.16374179199825334
88000100,0.08648229200759085,0.1636211080923827,-0.12124789539919638,-0.2687420596320612,0.1636211080923827
89000100,0.08747495048214877,0.16350015705729684,-0.12151663745882846,-0.26838330724584675,0.16350015705729684
90000100,0.08846757641623076,0.1633789392574989,-0.12178502076607431,-0.2680241905837707,0.1633789392574989
91000100,0.08946016978172992,0.16325745505783879,-0.12205304495665809,-0.2676647105220655,0.16325745505783879
92000100,0.09045273055087273,0.163135704823512,-0.12232070966718014,-0.2673048679371522,0.163135704823512
93000100,0.091445258696219,0.1630136889200588,-0.1225880145351173,-0.26694466370565234,0.1630136889200588
94000100,0.09243775419066169,0.16289140771336308,-0.12285495919882296,-0.26658409870442784,0.16289140771336308
95000100,0.09343021700742682,0.16276886156965134,-0.12312154329752739,-0.2662231738105509,0.16276886156965134
96000100,0.09442264712007335,0.16264605085549175,-0.12338776647133792,-0.2658618899012743,0.16264605085549175
97000100,0.09541504450249304,0.162522975937793,-0.12365362836123918,-0.2655002478541129,0.162522975937793
98000100,0.0964074091289103,0.16239963718380335,-0.1239191286090933,-0.2651382485467304,0.16239963718380335
99000100,0.09739974097388211,0.16227603496110962,-0.12418426685764003,-0.2647758928570205,0.16227603496110962
100000100,0.09839204001229786,0.16215216963763612,-0.12444904275049705,-0.26441318166309125,0.16215216963763612
101000100,0.09938430621937917,0.1620280415816437,-0.12471345593216014,-0.26405011584322113,0.1620280415816437
102000100,0.10037653957067984,0.1619036511617286,-0.12497750604800337,-0.2636866962759268,0.1619036511617286
103000100,0.10136874004208563,0.1617789987468216,-0.1252411927442793,-0.26332292383989137,0.1617789987468216
104000100,0.10236090760981413,0.1616540847061869,-0.1255045156681192,-0.26295879941399025,0.1616540847061869
105000100,0.10335304225041468,0.16152890940942102,-0.1257674744675332,-0.2625943238773309,0.16152890940942102
106000100,0.10434514394076812,0.161403473226452,-0.12603006879141052,-0.26222949810916735,0.161403473226452
107000100,0.10533721265808671,0.1612777765275381,-0.12629229828951968,-0.2618643229889678,0.1612777765275381
108000100,0.10632924837991395,0.1611518196832671,-0.12655416261250865,-0.2614987993963706,0.1611518196832671
109000100,0.10732125108412442,0.16102560306455502,-0.12681566141190503,-0.26113292821123835,0.16102560306455502
110000100,0.10831322074892363,0.16089912704264517,-0.12707679434011626,-0.2607667103135721,0.16089912704264517
111000100,0.10930515735284786,0.16077239198910723,-0.12733756105042984,-0.26040014658357896,0.16077239198910723
112000100,0.11029706087476399,0.16064539827583613,-0.12759796119701342,-0.2600332379016562,0.16064539827583613
113000100,0.11128893129386933,0.16051814627505104,-0.12785799443491505,-0.25966598514836164,0.16051814627505104
114000100,0.11228076858969145,0.16039063635929443,-0.12811766042006342,-0.25929838920442505,0.16039063635929443
115000100,0.11327257274208803,0.16026286890143096,-0.12837695880926786,-0.2589304509507884,0.16026286890143096
116000100,0.11426434373124666,0.1601348442746465,-0.12863588926021866,-0.25856217126852016,0.1601348442746465
117000100,0.1152560815376847,0.16000656285244716,-0.12889445143148717,-0.2581935510388828,0.16000656285244716
118000100,0.11624778614224902,0.1598780250086582,-0.12915264498252604,-0.2578245911433309,0.1598780250086582
119000100,0.11723945752611593,0.15974923111742306,-0.12941046957366936,-0.2574552924634397,0.15974923111742306
120000100,0.11823109567079092,0.15962018155320237,-0.12966792486613282,-0.2570856558810001,0.15962018155320237
121000100,0.11922270055810848,0.15949087669077286,-0.12992501052201383,-0.2567156822779337,0.15949087669077286
122000100,0.12021427217023195,0.1593613169052264,-0.13018172620429178,-0.25634537253633205,0.1593613169052264
123000100,0.12120581048965332,0.15923150257196897,-0.1304380715768281,-0.2559747275384551,0.15923150257196897
124000100,0.12219731549919297,0.1591014340667197,-0.13069404630436657,-0.25560374816671494,0.1591014340667197
125000100,0.12318878718199956,0.15897111176550976,-0.13094965005253328,-0.2552324353037018,0.15897111176550976
126000100,0.12418022552154982,0.15884053604468146,-0.13120488248783696,-0.25486078983212646,0.15884053604468146
127000100,0.12517163050164828,0.15870970728088712,-0.1314597432776691,-0.2544888126348876,0.15870970728088712
128000100,0.12616300210642717,0.1585786258510882,-0.131714232090304,-0.2541165045950144,0.1585786258510882
129000100,0.12715434032034612,0.15844729213255412,-0.131968348594899,-0.2537438665957062,0.15844729213255412
130000100,0.12814564512819202,0.15831570650286142,-0.1322220924614947,-0.25337089952027475,0.15831570650286142
131000100,0.12913691651507875,0.15818386933989262,-0.13247546336101496,-0.2529976042522259,0.15818386933989262
132000100,0.13012815446644704,0.1580517810218353,-0.1327284609652672,-0.25262398167517397,0.1580517810218353
133000100,0.1311193589680642,0.15791944192718108,-0.13298108494694239,-0.25225003267290946,0.15791944192718108
134000100,0.1321105300060239,0.1577868524347245,-0.1332333349796153,-0.2518757581293273,0.1577868524347245
135000100,0.13310166756674602,0.15765401292356224,-0.1334852107377446,-0.25150115892849456,0.15765401292356224
136000100,0.13409277163697633,0.15752092377309185,-0.1337367118966731,-0.251126235954607,0.15752092377309185
137000100,0.13508384220378633,0.15738758536301092,-0.1339878381326277,-0.2507509900919864,0.15738758536301092
138000100,0.136074879254573,0.15725399807331608,-0.1342385891227197,-0.25037542222509324,0.15725399807331608
139000100,0.13706588277705864,0.15712016228430184,-0.13448896454494477,-0.249999533238552,0.15712016228430184
140000100,0.1380568527592905,0.15698607837655978,-0.13473896407818334,-0.24962332401705217,0.15698607837655978
141000100,0.13904778918964067,0.1568517467309774,-0.13498858740220038,-0.24924679544549888,0.1568517467309774
142000100,0.14003869205680577,0.15671716772873717,-0.13523783419764587,-0.24886994840884452,0.15671716772873717
143000100,0.14102956134980676,0.15658234175131555,-0.1354867041460547,-0.2484927837922115,0.15658234175131555
144000100,0.1420203970579887,0.15644726918048196,-0.13573519692984692,-0.24811530248084868,0.15644726918048196
145000100,0.14301119917102045,0.15631195039829776,-0.13598331223232776,-0.24773750536011568,0.15631195039829776
146000100,0.1440019676788945,0.15617638578711532,-0.13623104973768788,-0.24735939331548062,0.15617638578711532
147000100,0.14499270257192665,0.1560405757295769,-0.13647840913100334,-0.24698096723257396,0.1560405757295769
148000100,0.1459834038407558,0.15590452060861382,-0.13672539009823592,-0.24660222799708909,0.15590452060861382
149000100,0.14697407147634375,0.15576822080744523,-0.136971992326233,-0.24622317649487774,0.15576822080744523
150000100,0.14796470546997484,0.15563167670957737,-0.13721821550272786,-0.24584381361187851,0.15563167670957737
151000100,0.14895530581325572,0.15549488869880235,-0.13746405931633973,-0.24546414023417046,0.15549488869880235
152000100,0.1499458724981152,0.1553578571591973,-0.1377095234565739,-0.24508415724791544,0.1553578571591973
153000100,0.15093640551680382,0.15522058247512333,-0.1379546076138218,-0.2447038655394121,0.15522058247512333
154000100,0.15192690486189372,0.15508306503122446,-0.1381993114793612,-0.24432326599503779,0.15508306503122446
155000100,0.15291737052627832,0.15494530521242672,-0.13844363474535626,-0.2439423595013026,0.15494530521242672
156000100,0.15390780250317204,0.1548073034039371,-0.13868757710485757,-0.2435611469447917,0.1548073034039371
157000100,0.15489820078611005,0.15466905999124264,-0.13893113825180237,-0.2431796292122188,0.15466905999124264
158000100,0.15588856536894805,0.15453057536010925,-0.13917431788101456,-0.24279780719039662,0.15453057536010925
159000100,0.15687889624586185,0.15439184989658095,-0.13941711568820495,-0.24241568176620698,0.15439184989658095
160000100,0.15786919341134725,0.15425288398697867,-0.13965953136997114,-0.24203325382668228,0.15425288398697867
161000100,0.15885945686021968,0.15411367801789944,-0.13990156462379782,-0.24165052425889244,0.15411367801789944
162000100,0.15984968658761392,0.15397423237621521,-0.14014321514805672,-0.24126749395005398,0.15397423237621521
163000100,0.16083988258898385,0.15383454744907202,-0.14038448264200679,-0.24088416378743077,0.15383454744907202
164000100,0.16183004486010213,0.1536946236238889,-0.1406253668057942,-0.24050053465840182,0.1536946236238889
165000100,0.16282017339705995,0.15355446128835692,-0.14086586734045262,-0.24011660745043106,0.15355446128835692
166000100,0.1638102681962667,0.15341406083043826,-0.14110598394790305,-0.23973238305107986,0.15341406083043826
167000100,0.16480032925444968,0.15327342263836513,-0.14134571633095414,-0.23934786234797678,0.15327342263836513
168000100,0.16579035656865385,0.15313254710063878,-0.1415850641933021,-0.2389630462288576,0.15313254710063878
169000100,0.16678035013624148,0.15299143460602857,-0.14182402723953097,-0.2385779355815077,0.15299143460602857
170000100,0.1677703099548919,0.15285008554357093,-0.1420626051751125,-0.23819253129381562,0.15285008554357093
171000100,0.16876023602260112,0.15270850030256847,-0.1423007977064063,-0.23780683425374344,0.15270850030256847
172000100,0.16975012833768166,0.15256667927258882,-0.14253860454066006,-0.2374208453493526,0.15256667927258882
173000100,0.1707399868987621,0.15242462284346384,-0.14277602538600942,-0.2370345654687323,0.15242462284346384
174000100,0.17172981170478688,0.15228233140528846,-0.14301305995147814,-0.2366479955000952,0.15228233140528846
175000100,0.1727196027550159,0.15213980534841987,-0.14324970794697825,-0.23626113633169166,0.15213980534841987
176000100,0.17370936004902432,0.15199704506347633,-0.14348596908330993,-0.2358739888518776,0.15199704506347633
177000100,0.1746990835867021,0.1518540509413364,-0.14372184307216182,-0.23548655394902906,0.1518540509413364
178000100,0.17568877336825384,0.15171082337313777,-0.14395732962611085,-0.23509883251163743,0.15171082337313777
179000100,0.17667842939419834,0.15156736275027644,-0.14419242845862248,-0.23471082542823835,0.15156736275027644
